mole fraction,chemical potential
0.01,-293.2174826487573
0.02,-324.4058012907643
0.03,-355.9140057038731
0.04,-387.74872582117405
0.05,-419.9167998534025
0.060000000000000005,-452.4252831053266
0.07,-485.28145726362607
0.08,-518.4928401868465
0.09,-552.0671962303572
0.09999999999999999,-586.0125471417787
0.10999999999999999,-620.3371835651332
0.11999999999999998,-655.0496771949873
0.12999999999999998,-690.1588936251604
0.13999999999999999,-725.6740059401811
0.15,-761.6045091016193
0.16,-797.9602351857379
0.16000000000000003,-797.9602351857379
0.16100000000000003,-801.6195840401118
0.16200000000000003,-805.2832970563478
0.16300000000000003,-808.9513846563285
0.16400000000000003,-812.6238572993137
0.16500000000000004,-816.3007254821184
0.16600000000000004,-819.9819997392937
0.16700000000000004,-823.6676906433074
0.16800000000000004,-827.3578088047263
0.16900000000000004,-831.0523648723995
0.17,-834.7513695336427
0.17000000000000004,-834.7513695336427
0.17100000000000004,-838.4548335144237
0.17200000000000004,-842.1627675795494
0.17300000000000004,-845.8751825328528
0.17400000000000004,-849.5920892173824
0.17500000000000004,-853.3134985155924
0.17600000000000005,-857.0394213495331
0.17700000000000005,-860.7698686810439
0.17800000000000005,-864.5048515119471
0.17900000000000005,-868.2443808842412
0.18000000000000002,-871.9884678802982
0.18000000000000005,-871.9884678802982
0.18100000000000005,-875.7371236230601
0.18200000000000005,-879.4903592762373
0.18300000000000005,-883.2481860445074
0.18400000000000005,-887.0106151737172
0.18500000000000005,-890.7776579510833
0.18600000000000005,-894.5493257053962
0.18700000000000006,-898.3256298072243
0.18800000000000006,-902.1065816691197
0.18900000000000006,-905.8921927458249
0.19000000000000003,-909.6824745344816
0.19000000000000006,-909.6824745344816
0.19100000000000006,-913.4774385748393
0.19200000000000006,-917.2770964494671
0.19300000000000006,-921.0814597839652
0.19400000000000006,-924.8905402471783
0.19500000000000006,-928.7043495514108
0.19600000000000006,-932.5228994526423
0.19700000000000006,-936.3462017507455
0.19800000000000006,-940.1742682897046
0.19900000000000007,-944.0071109578361
0.20000000000000004,-947.8447416880091
0.20000000000000007,-947.8447416880091
0.20100000000000007,-951.6871724578697
0.20200000000000007,-955.5344152900642
0.20300000000000007,-959.3864822524654
0.20400000000000007,-963.2433854583991
0.20500000000000007,-967.1051370668735
0.20600000000000007,-970.9717492828086
0.20700000000000007,-974.8432343572675
0.20800000000000007,-978.7196045876901
0.20900000000000007,-982.6008723181268
0.21000000000000005,-986.4870499394742
0.21000000000000008,-986.4870499394742
0.21100000000000008,-990.3781498897131
0.21200000000000008,-994.2741846541468
0.21300000000000008,-998.1751667656418
0.21400000000000008,-1002.0811088048698
0.21500000000000008,-1005.9920234005505
0.21600000000000008,-1009.9079232296973
0.21700000000000008,-1013.8288210178632
0.21800000000000008,-1017.75472953939
0.21900000000000008,-1021.6856616176566
0.22000000000000006,-1025.6216301253312
0.23000000000000007,-1065.2611865595516
0.24000000000000007,-1105.4189217923354
0.25000000000000006,-1146.1085630086136
0.26000000000000006,-1187.3443901984174
0.2700000000000001,-1229.1412662437667
0.2800000000000001,-1271.5146690807114
0.2900000000000001,-1314.480726110678
0.3000000000000001,-1358.0562510525729
0.3100000000000001,-1402.2587834463843
0.3200000000000001,-1447.1066310405522
0.3300000000000001,-1492.6189153194773
0.34000000000000014,-1538.8156204545253
0.35000000000000014,-1585.7176459921664
0.36000000000000015,-1633.346863626942
0.37000000000000016,-1681.7261784452758
0.38000000000000017,-1730.879595069394
0.3900000000000002,-1780.8322891794833
0.4000000000000002,-1831.610684947547
0.4100000000000002,-1883.2425389791915
0.4200000000000002,-1935.7570314309287
0.4300000000000002,-1989.1848650518734
0.4400000000000002,-2043.5583729915065
0.45000000000000023,-2098.9116363213607
0.46000000000000024,-2155.2806123402497
0.47000000000000025,-2212.703274872642
0.48000000000000026,-2271.2197679310993
0.49000000000000027,-2330.8725743000905
0.5000000000000002,-2391.7067008143827
0.5100000000000002,-2453.769882356071
0.5200000000000002,-2517.1128068864805
0.5300000000000002,-2581.789364170633
0.5400000000000003,-2647.8569212521534
0.5500000000000003,-2715.3766282070856
0.5600000000000003,-2784.413758260294
0.5700000000000003,-2855.0380870054883
0.5800000000000003,-2927.324316251045
0.5900000000000003,-3001.352548945605
0.6000000000000003,-3077.2088227533163
0.6100000000000003,-3154.9857111906385
0.6200000000000003,-3234.7830028576427
0.6300000000000003,-3316.708471263725
0.6400000000000003,-3400.8787501460192
0.6500000000000004,-3487.420332117881
0.6600000000000004,-3576.4707121058605
0.6700000000000004,-3668.179701519833
0.6800000000000004,-3762.71094469225
0.6900000000000004,-3860.243676134702
0.7000000000000004,-3960.974766012855
0.7100000000000004,-4065.1211124962374
0.7200000000000004,-4172.922454056815
0.7300000000000004,-4284.644693405558
0.7400000000000004,-4400.583848996409
0.7500000000000004,-4521.070781879692
0.7600000000000005,-4646.47688795179
0.7700000000000005,-4777.221002317463
0.7800000000000005,-4913.777839325604
0.7900000000000005,-5056.688397316355
0.8000000000000005,-5206.572903818626
0.8100000000000005,-5364.147083922953
0.8200000000000005,-5530.24283121133
0.8300000000000005,-5705.834793171171
0.8400000000000005,-5892.075025757561
0.8500000000000005,-6090.338847078167
0.8600000000000005,-6302.286535122127
0.8700000000000006,-6529.947930061722
0.8800000000000006,-6775.840969017104
0.8900000000000006,-7043.141920390918
0.9000000000000006,-7335.936984883942
0.9100000000000006,-7659.606912276646
0.9200000000000006,-8021.439106822879
0.9210000000000006,-8060.081415074345
0.9220000000000006,-8099.215995260202
0.9230000000000006,-8138.855551694423
0.9240000000000006,-8179.0132869272065
0.9250000000000006,-8219.702928143486
0.9260000000000006,-8260.938755333289
0.9270000000000006,-8302.73563137864
0.9280000000000006,-8345.109034215584
0.9290000000000006,-8388.075091245551
0.9300000000000006,-8431.650616187446
0.9310000000000006,-8475.85314858126
0.9320000000000006,-8520.700996175427
0.9330000000000006,-8566.21328045435
0.9340000000000006,-8612.409985589398
0.9350000000000006,-8659.312011127044
0.9360000000000006,-8706.941228761818
0.9370000000000006,-8755.320543580154
0.9380000000000006,-8804.473960204272
0.9390000000000006,-8854.42665431436
0.9400000000000006,-8905.205050082426
0.9410000000000006,-8956.836904114072
0.9420000000000006,-9009.35139656581
0.9430000000000006,-9062.779230186752
0.9440000000000006,-9117.152738126388
0.9450000000000006,-9172.50600145624
0.9460000000000006,-9228.87497747513
0.9470000000000006,-9286.297640007524
0.9480000000000006,-9344.814133065982
0.9490000000000006,-9404.466939434973
0.9500000000000006,-9465.301065949265
0.9510000000000006,-9527.364247490957
0.9520000000000006,-9590.707172021364
0.9530000000000006,-9655.383729305519
0.9540000000000006,-9721.45128638704
0.9550000000000006,-9788.970993341976
0.9560000000000006,-9858.008123395182
0.9570000000000006,-9928.632452140377
0.9580000000000006,-10000.918681385934
0.9590000000000006,-10074.946914080498
0.9600000000000006,-10150.80318788821
0.9610000000000006,-10228.580076325532
0.9620000000000006,-10308.37736799254
0.9630000000000006,-10390.302836398623
0.9640000000000006,-10474.473115280918
0.9650000000000006,-10561.01469725278
0.9660000000000006,-10650.06507724076
0.9670000000000006,-10741.774066654736
0.9680000000000006,-10836.305309827156
0.9690000000000006,-10933.83804126961
0.9700000000000006,-11034.569131147764
0.9710000000000006,-11138.715477631147
0.9720000000000006,-11246.51681919173
0.9730000000000006,-11358.239058540476
0.9740000000000006,-11474.178214131327
0.9750000000000006,-11594.665147014613
0.9760000000000006,-11720.071253086713
0.9770000000000006,-11850.81536745239
0.9780000000000006,-11987.372204460535
0.9790000000000006,-12130.28276245129
0.9800000000000006,-12280.167268953566
0.9810000000000006,-12437.741449057896
0.9820000000000007,-12603.837196346281
0.9830000000000007,-12779.429158306124
0.9840000000000007,-12965.669390892526
0.9850000000000007,-13163.933212213138
0.9860000000000007,-13375.880900257107
0.9870000000000007,-13603.542295196708
0.9880000000000007,-13849.435334152102
0.9890000000000007,-14116.736285525934
0.9900000000000007,-14409.531350018973
