mole fraction,total molar Gibbs energy
0.01,-1748.8791782973058
0.02,-1795.1161214213864
0.03,-1829.6849246370048
0.04,-1857.8433274178424
0.05,-1881.9728983088542
0.060000000000000005,-1903.3970283548406
0.06342314212521856,-1910.2653993601018
0.06442314212521856,-1912.2340643594118
0.06542314212521856,-1914.1866566732538
0.06642314212521856,-1916.1237022746777
0.06742314212521856,-1918.0457070864124
0.06842314212521856,-1919.9531579225134
0.06942314212521856,-1921.8465233742854
0.07,-1922.932496913622
0.07042314212521857,-1923.7262546445115
0.07142314212521857,-1925.592786333647
0.07242314212521857,-1927.446537181299
0.07342314212521857,-1929.2879107662347
0.07442314212521857,-1931.1172961675752
0.07542314212521857,-1932.9350685899735
0.07642314212521857,-1934.741589954952
0.07742314212521857,-1936.537209460892
0.07842314212521857,-1938.3222641134482
0.07942314212521857,-1940.0970792284736
0.08,-1941.1163614028533
0.08042314212521857,-1941.861968909081
0.08142314212521858,-1943.6172364985143
0.08242314212521858,-1945.3631750102893
0.08342314212521858,-1947.1000675370256
0.08442314212521858,-1948.8281876392198
0.08542314212521858,-1950.5477997151534
0.08642314212521858,-1952.2591593530756
0.08742314212521858,-1953.9625136667082
0.08842314212521858,-1955.6581016149378
0.08942314212521858,-1957.3461543067199
0.09,-1958.3165813105886
0.09042314212521858,-1959.0268952919207
0.09142314212521858,-1960.7005408389691
0.09242314212521859,-1962.3673001999884
0.09342314212521859,-1964.0273758640828
0.09442314212521859,-1965.6809637994643
0.09542314212521859,-1967.328253685024
0.09642314212521859,-1968.9694291317933
0.09742314212521859,-1970.6046678949788
0.09842314212521859,-1972.2341420769494
0.09942314212521859,-1973.8580183217075
0.09999999999999999,-1974.7922813696218
0.10042314212521859,-1975.4764580012018
0.1014231421252186,-1977.089617393966
0.1024231421252186,-1978.6976478564334
0.1034231421252186,-1980.3006959872882
0.1044231421252186,-1981.8989037851911
0.1054231421252186,-1983.4924088002426
0.1064231421252186,-1985.0813442793578
0.1074231421252186,-1986.6658393060675
0.1084231421252186,-1988.2460189347498
0.1094231421252186,-1989.8220043197546
0.10999999999999999,-1990.7292623173528
0.1104231421252186,-1991.3939128395573
0.1114231421252186,-1992.961858216186
0.1124231421252186,-1994.5259506301436
0.1134231421252186,-1996.0862968310485
0.1144231421252186,-1997.6430002441587
0.1154231421252186,-1999.19616107295
0.1164231421252186,-2000.745876397976
0.11742314212521861,-2002.2922402721015
0.11842314212521861,-2003.835343812342
0.11942314212521861,-2005.3752752883893
0.11999999999999998,-2006.2621877121549
0.12042314212521861,-2006.9121202079996
0.12142314212521861,-2008.4459613993695
0.12242314212521861,-2009.9768790906346
0.12342314212521861,-2011.504950986579
0.12442314212521861,-2013.0302523427388
0.1254231421252186,-2014.5528560368916
0.1264231421252186,-2016.0728326381955
0.1274231421252186,-2017.5902504739097
0.1284231421252186,-2019.105175693912
0.1294231421252186,-2020.6176723330505
0.12999999999999998,-2021.4890876799786
0.1304231421252186,-2022.1278023714387
0.1314231421252186,-2023.6356257927025
0.1324231421252186,-2025.1412006404005
0.1334231421252186,-2026.6445830725484
0.1344231421252186,-2028.1458274143856
0.1354231421252186,-2029.6449862094642
0.1364231421252186,-2031.142110269058
0.1374231421252186,-2032.637248720056
0.1384231421252186,-2034.1304490512966
0.1394231421252186,-2035.6217571584489
0.13999999999999999,-2036.481186765691
0.14042314212521861,-2037.1112173875326
0.14142314212521861,-2038.5988725770114
0.14242314212521862,-2040.084764098642
0.14342314212521862,-2041.5689318970597
0.14442314212521862,-2043.0514145281218
0.14542314212521862,-2044.5322491961106
0.14642314212521862,-2046.0114717898
0.14742314212521862,-2047.489116917448
0.14842314212521862,-2048.965217940726
0.14942314212521862,-2050.4398070076386
0.15,-2051.289759813153
0.15042314212521862,-2051.9129150844847
0.15142314212521862,-2053.3845719868323
0.15242314212521862,-2054.8548064096685
0.15342314212521863,-2056.3236459565637
0.15442314212521863,-2057.7911171680466
0.15542314212521863,-2059.2572455491772
0.15642314212521863,-2060.722055596282
0.15742314212521863,-2062.185570822936
0.15842314212521863,-2063.647813785213
0.15942314212521863,-2065.1088061062196
0.16,-2065.9510303546544
0.16042314212521863,-2066.568568499919
0.16142314212521863,-2068.027120794302
0.16242314212521863,-2069.4844819539044
0.16342314212521863,-2070.9406701016997
0.16442314212521864,-2072.395702540341
0.16542314212521864,-2073.8495957729097
0.16642314212521864,-2075.3023655230136
0.16742314212521864,-2076.7540267543145
0.16842314212521864,-2078.2045936896466
0.16942314212521864,-2079.654079829458
0.17,-2080.489740792972
0.17042314212521864,-2081.1024979698796
0.17142314212521864,-2082.549860220215
0.17242314212521864,-2083.9961780200374
0.17342314212521864,-2085.441462155755
0.17442314212521864,-2086.885722776806
0.17542314212521865,-2088.328969411371
0.17642314212521865,-2089.771210981692
0.17742314212521865,-2091.2124558189657
0.17842314212521865,-2092.6527116779043
0.17942314212521865,-2094.0919857508434
0.18000000000000002,-2094.921798423999
0.18042314212521865,-2095.5302846814984
0.18142314212521865,-2096.967614578429
0.18242314212521865,-2098.4039810280556
0.18342314212521865,-2099.8393891074174
0.18442314212521865,-2101.273843396547
0.18542314212521865,-2102.7073479905876
0.18642314212521865,-2104.1399065115384
0.18742314212521866,-2105.571522119747
0.18842314212521866,-2107.002197525085
0.18942314212521866,-2108.4319349978527
0.19000000000000003,-2109.25626447219
0.19042314212521866,-2109.8607363794013
0.19142314212521866,-2111.28860309249
0.19242314212521866,-2112.715536151396
0.19342314212521866,-2114.1415361717395
0.19442314212521866,-2115.566603380127
0.19542314212521866,-2116.9907376234587
0.19642314212521866,-2118.4139383781057
0.19742314212521866,-2119.836204758781
0.19842314212521867,-2121.25753552726
0.19942314212521867,-2122.6779291008193
0.20000000000000004,-2123.496867336044
0.20042314212521867,-2124.0973835605246
0.20142314212521867,-2125.5158966593044
0.20242314212521867,-2126.9334658297594
0.20342314212521867,-2128.350088191909
0.20442314212521867,-2129.7657605606614
0.20542314212521867,-2131.1804794530813
0.20642314212521867,-2132.594241095556
0.20742314212521867,-2134.0070414307747
0.20842314212521867,-2135.4188761244777
0.20942314212521868,-2136.82974057213
0.21000000000000005,-2137.6431656688255
0.21042314212521868,-2138.239629905348
0.21142314212521868,-2139.6485389982545
0.21242314212521868,-2141.0564624736407
0.21342314212521868,-2142.4633947089796
0.21442314212521868,-2143.8693298422913
0.21542314212521868,-2145.2742617779195
0.21642314212521868,-2146.678184192093
0.21742314212521868,-2148.0810905384583
0.21842314212521868,-2149.4829740533323
0.21942314212521868,-2150.883827761007
0.22000000000000006,-2151.691450088016
0.22042314212521869,-2152.283644478825
0.22142314212521869,-2153.6824168221137
0.2224231421252187,-2155.0801372090955
0.2234231421252187,-2156.47679786562
0.2244231421252187,-2157.872390829796
0.2254231421252187,-2159.2669079565394
0.2264231421252187,-2160.6603409219515
0.2274231421252187,-2162.052681227725
0.2284231421252187,-2163.4439202052845
0.2294231421252187,-2164.8340490199553
0.23000000000000007,-2165.6354473507768
0.2304231421252187,-2166.2230586749956
0.2314231421252187,-2167.6109400155074
0.2324231421252187,-2168.9976837323084
0.2334231421252187,-2170.383280365713
0.2344231421252187,-2171.767720309116
0.2354231421252187,-2173.150993812708
0.2364231421252187,-2174.533090986877
0.2374231421252187,-2175.914001805695
0.2384231421252187,-2177.2937161102404
0.2394231421252187,-2178.672223611895
0.24000000000000007,-2179.466873588247
0.2404231421252187,-2180.0495138955143
0.2414231421252187,-2181.425576422554
0.2424231421252187,-2182.8004005341786
0.2434231421252187,-2184.1739754541627
0.2444231421252187,-2185.546290291874
0.2454231421252187,-2186.9173340450957
0.2464231421252187,-2188.2870956028264
0.2474231421252187,-2189.6555637479896
0.2484231421252187,-2191.022727160121
0.2494231421252187,-2192.3885744179206
0.25000000000000006,-2193.1758710660415
0.2504231421252187,-2193.7530940018723
0.2514231421252187,-2195.11627429666
0.2524231421252187,-2196.4781035936294
0.2534231421252187,-2197.838570093162
0.2544231421252187,-2199.197661907
0.2554231421252187,-2200.5553670604986
0.2564231421252187,-2201.9116734948575
0.2574231421252187,-2203.2665690692743
0.2584231421252187,-2204.620041563091
0.2594231421252187,-2205.972078677847
0.26000000000000006,-2206.7513542765996
0.2604231421252187,-2207.3226680392886
0.2614231421252187,-2208.6717971993694
0.2624231421252187,-2210.0194536382023
0.2634231421252187,-2211.3656247658937
0.2644231421252187,-2212.710297924437
0.2654231421252187,-2214.0534603895157
0.2664231421252187,-2215.395099372247
0.2674231421252187,-2216.73520202091
0.2684231421252187,-2218.0737554226525
0.26942314212521873,-2219.410746605153
0.2700000000000001,-2220.1812848940117
0.27042314212521873,-2220.7461625381384
0.27142314212521873,-2222.0799901350806
0.27242314212521873,-2223.412216254662
0.27342314212521873,-2224.7428277022987
0.27442314212521873,-2226.071811231596
0.27542314212521873,-2227.399153545811
0.27642314212521873,-2228.724841299225
0.27742314212521874,-2230.048861098539
0.27842314212521874,-2231.371199504202
0.27942314212521874,-2232.6918430317114
0.2800000000000001,-2233.4528905171974
0.28042314212521874,-2234.0107781529164
0.28142314212521874,-2235.3279912972457
0.28242314212521874,-2236.6434688529334
0.28342314212521874,-2237.9571971682044
0.28442314212521874,-2239.269162552479
0.28542314212521874,-2240.579351277455
0.28642314212521874,-2241.8877495782344
0.28742314212521874,-2243.1943436544566
0.28842314212521875,-2244.4991196712836
0.28942314212521875,-2245.8020637605096
0.2900000000000001,-2246.5528387080108
0.29042314212521875,-2247.1031620214967
0.29142314212521875,-2248.4024005222423
0.29242314212521875,-2249.699765300281
0.29342314212521875,-2250.9952423636605
0.29442314212521875,-2252.288817691825
0.29542314212521875,-2253.5804772365836
0.29642314212521875,-2254.870206922895
0.29742314212521875,-2256.1579926497975
0.29842314212521875,-2257.4438202911974
0.29942314212521876,-2258.7276756967103
0.3000000000000001,-2259.4673752657677
0.30042314212521876,-2260.0095446924433
0.30142314212521876,-2261.2894130817695
0.30242314212521876,-2262.5672666461046
0.30342314212521876,-2263.8430911456107
0.30442314212521876,-2265.1168723199407
0.30542314212521876,-2266.38859588894
0.30642314212521876,-2267.6582475533173
0.30742314212521876,-2268.925812995332
0.30842314212521876,-2270.19127787943
0.30942314212521876,-2271.454627852876
0.3100000000000001,-2272.182433735245
0.31042314212521877,-2272.7158485463897
0.31142314212521877,-2273.974925574741
0.31242314212521877,-2275.231844537318
0.31342314212521877,-2276.486591018732
0.31442314212521877,-2277.7391505893524
0.31542314212521877,-2278.989508805852
0.31642314212521877,-2280.237651211759
0.31742314212521877,-2281.483563337927
0.31842314212521877,-2282.727230703076
0.3194231421252188,-2283.968638814287
0.3200000000000001,-2284.683721658744
0.3204231421252188,-2285.2077731674017
0.3214231421252188,-2286.444619247601
0.3224231421252188,-2287.6791625297374
0.3234231421252188,-2288.9113884788685
0.3244231421252188,-2290.141282550617
0.3254231421252188,-2291.368830191597
0.3264231421252188,-2292.5940168398456
0.3274231421252188,-2293.816827925172
0.3284231421252188,-2295.037248869561
0.3294231421252188,-2296.2552650875314
0.3300000000000001,-2296.9567879369097
0.3304231421252188,-2297.4708619864878
0.3314231421252188,-2298.6840249670786
0.3324231421252188,-2299.8947394235092
0.3334231421252188,-2301.102990743905
0.3344231421252188,-2302.3087643105882
0.3354231421252188,-2303.512045500388
0.3364231421252188,-2304.712819684969
0.3374231421252188,-2305.9110722310857
0.3384231421252188,-2307.1067885008497
0.3394231421252188,-2308.299953852038
0.34000000000000014,-2308.9870747722384
0.3404231421252188,-2309.490553638317
0.3414231421252188,-2310.6785732095095
0.3424231421252188,-2311.8639979118207
0.3434231421252188,-2313.0468130880945
0.3444231421252188,-2314.2270040780168
0.3454231421252188,-2315.4045562183246
0.3464231421252188,-2316.579454843055
0.3474231421252188,-2317.7516852837016
0.3484231421252188,-2318.9212328694157
0.3494231421252188,-2320.088082927238
0.35000000000000014,-2320.7599569723616
0.3504231421252188,-2321.2522207821894
0.3514231421252188,-2322.413631757525
0.3524231421252188,-2323.5723011748396
0.3534231421252188,-2324.728214354278
0.3544231421252188,-2325.8813566146164
0.3554231421252188,-2327.0317132734576
0.3564231421252188,-2328.1792696473517
0.3574231421252188,-2329.324011051921
0.3584231421252188,-2330.46592280199
0.3594231421252188,-2331.604990211665
0.36000000000000015,-2332.2607708409055
0.3604231421252188,-2332.7411985945355
0.3614231421252188,-2333.874533263671
0.3624231421252188,-2335.0049795317846
0.3634231421252188,-2336.1325227112907
0.3644231421252188,-2337.257148114436
0.3654231421252188,-2338.378841053326
0.3664231421252188,-2339.4975868400224
0.3674231421252188,-2340.6133707866493
0.3684231421252188,-2341.7261782053743
0.3694231421252188,-2342.835994408565
0.37000000000000016,-2343.474834448045
0.3704231421252188,-2343.942804708756
0.3714231421252188,-2345.0465944187436
0.3724231421252188,-2346.147348851631
0.3734231421252188,-2347.2450533208485
0.3744231421252188,-2348.3396931401758
0.3754231421252188,-2349.4312536238303
0.3764231421252188,-2350.519720086396
0.3774231421252188,-2351.605077842919
0.3784231421252188,-2352.68731220892
0.3794231421252188,-2353.766408500335
0.38000000000000017,-2354.3874607251328
0.3804231421252188,-2354.842352033599
0.38142314212521883,-2355.915128125598
0.38242314212521883,-2356.9847220937036
0.38342314212521883,-2358.0511192557274
0.38442314212521883,-2359.1143049299217
0.38542314212521883,-2360.174264434988
0.38642314212521883,-2361.2309830900267
0.38742314212521883,-2362.284446214502
0.38842314212521883,-2363.334639128275
0.38942314212521884,-2364.3815471515118
0.3900000000000002,-2364.9839645483316
0.39042314212521884,-2365.42515560465
0.39142314212521884,-2366.4654498084183
0.39242314212521884,-2367.502415083732
0.39342314212521884,-2368.5360367516546
0.39442314212521884,-2369.5663001333755
0.39542314212521884,-2370.593190550139
0.39642314212521884,-2371.6166933231907
0.39742314212521884,-2372.636793773693
0.39842314212521884,-2373.653477222722
0.39942314212521884,-2374.6667289911193
0.4000000000000002,-2375.249664750587
0.40042314212521884,-2375.6765343994957
0.40142314212521885,-2376.6828787680965
0.40242314212521885,-2377.6857474167628
0.40342314212521885,-2378.6851256648342
0.40442314212521885,-2379.68099883108
0.40542314212521885,-2380.6733522335853
0.40642314212521885,-2381.6621711896923
0.40742314212521885,-2382.6474410158753
0.40842314212521885,-2383.6291470276865
0.40942314212521885,-2384.6072745396104
0.4100000000000002,-2385.1698818172467
0.41042314212521885,-2385.5818088649867
0.41142314212521885,-2386.5527353159137
0.41242314212521886,-2387.52003920313
0.41342314212521886,-2388.4837058358844
0.41442314212521886,-2389.4437205218514
0.41542314212521886,-2390.4000685670208
0.41642314212521886,-2391.3527352755646
0.41742314212521886,-2392.3017059496788
0.41842314212521886,-2393.246965889539
0.41942314212521886,-2394.188500393091
0.4200000000000002,-2394.729931870478
0.42042314212521886,-2395.1262947560076
0.42142314212521886,-2396.0603342714703
0.42242314212521886,-2396.990604230079
0.42342314212521887,-2397.917089919738
0.42442314212521887,-2398.8397766254598
0.42542314212521887,-2399.7586496292743
0.42642314212521887,-2400.6736942100324
0.42742314212521887,-2401.5848956433256
0.42842314212521887,-2402.4922392012813
0.42942314212521887,-2403.3957101524247
0.4300000000000002,-2403.915117423031
0.43042314212521887,-2404.2952937615523
0.4314231421252189,-2405.190975289521
0.4324231421252189,-2406.0827399931495
0.4334231421252189,-2406.970573125016
0.4344231421252189,-2407.854459933318
0.4354231421252189,-2408.734385661678
0.4364231421252189,-2409.6103355490195
0.4374231421252189,-2410.4822948293477
0.4384231421252189,-2411.350248731611
0.4394231421252189,-2412.2141824795326
0.4400000000000002,-2412.7107152786916
0.4404231421252189,-2413.0740812913746
0.4414231421252189,-2413.9299303798443
0.4424231421252189,-2414.781714951856
0.4434231421252189,-2415.6294202083504
0.4444231421252189,-2416.473031344124
0.4454231421252189,-2417.3125335476584
0.4464231421252189,-2418.1479120008676
0.4474231421252189,-2418.9791518790075
0.4484231421252189,-2419.8062383503557
0.4494231421252189,-2420.6291565761235
0.45000000000000023,-2421.1019618696755
0.4504231421252189,-2421.4478917102056
0.4514231421252189,-2422.26242889898
0.4524231421252189,-2423.0727532811397
0.4534231421252189,-2423.8788499874186
0.4544231421252189,-2424.680704140481
0.4554231421252189,-2425.478300854635
0.4564231421252189,-2426.2716252356367
0.4574231421252189,-2427.0606623805033
0.4584231421252189,-2427.8453973772794
0.4594231421252189,-2428.6258153048275
0.46000000000000024,-2429.0740362470833
0.4604231421252189,-2429.401901232607
0.4614231421252189,-2430.1736402204224
0.4624231421252189,-2430.941017318266
0.4634231421252189,-2431.704017566047
0.4644231421252189,-2432.462625993344
0.4654231421252189,-2433.216827619236
0.4664231421252189,-2433.9666074520283
0.4674231421252189,-2434.7119504890343
0.4684231421252189,-2435.4528417163215
0.4694231421252189,-2436.1892661084967
0.47000000000000025,-2436.6120408766706
0.4704231421252189,-2436.9212086284724
0.4714231421252189,-2437.648654227184
0.4724231421252189,-2438.3715878433886
0.4734231421252189,-2439.0899944034045
0.4744231421252189,-2439.8038588208633
0.4754231421252189,-2440.513165996448
0.4764231421252189,-2441.217900817668
0.4774231421252189,-2441.9180481585727
0.4784231421252189,-2442.613592879534
0.4794231421252189,-2443.3045198269583
0.48000000000000026,-2443.700980336349
0.4804231421252189,-2443.9908138330184
0.4814231421252189,-2444.6724597154534
0.4824231421252189,-2445.3494422772137
0.4834231421252189,-2446.0217463062463
0.4844231421252189,-2446.6893565752634
0.4854231421252189,-2447.3522578413795
0.4864231421252189,-2448.0104348459136
0.4874231421252189,-2448.6638723140763
0.4884231421252189,-2449.3125549547294
0.4894231421252189,-2449.956467460065
0.49000000000000027,-2450.3257379612587
0.4904231421252189,-2450.5955945053574
0.4914231421252189,-2451.229920748646
0.4924231421252189,-2451.85943083048
0.4934231421252189,-2452.4841093736295
0.49442314212521893,-2453.103940982771
0.49542314212521893,-2453.718910244229
0.49642314212521893,-2454.3290017256386
0.49742314212521893,-2454.934199975709
0.49842314212521893,-2455.5344895238686
0.49942314212521893,-2456.1298548799846
0.5000000000000002,-2456.4710504368236
0.5004231421252189,-2456.720280534065
0.5014231421252189,-2457.305750955959
0.5024231421252189,-2457.8862505950356
0.5034231421252189,-2458.461763879858
0.5044231421252189,-2459.032275217921
0.5054231421252189,-2459.5977689952956
0.5064231421252189,-2460.1582295763183
0.5074231421252189,-2460.7136413032777
0.5084231421252189,-2461.263988496097
0.5094231421252189,-2461.8092554519994
0.5100000000000002,-2462.121480296998
0.5104231421252189,-2462.349426445203
0.5114231421252189,-2462.884485726542
0.5124231421252189,-2463.414417523194
0.5134231421252189,-2463.939206038326
0.5144231421252189,-2464.4588354507323
0.5154231421252189,-2464.9732899145356
0.5164231421252189,-2465.482553558808
0.5174231421252189,-2465.986610487269
0.5184231421252189,-2466.485444777898
0.5194231421252189,-2466.979040482607
0.5200000000000002,-2467.26138624349
0.5204231421252189,-2467.467381626886
0.5214231421252189,-2467.950452209442
0.5224231421252189,-2468.4282362018594
0.5234231421252189,-2468.9007175482147
0.5244231421252189,-2469.3678801647334
