mole fraction,total molar Gibbs energy
0.0001,-841.1590726038856
0.007569403791054705,-910.7581870937596
0.008569403791054704,-917.1788846128123
0.009569403791054705,-923.2845117378049
0.0101,-926.4093178333817
0.010569403791054706,-929.1124627049963
0.011569403791054707,-934.6929660883136
0.012569403791054708,-940.0509544182947
0.013569403791054709,-945.2073349799695
0.01456940379105471,-950.1798839603426
0.01556940379105471,-954.9838939624884
0.01656940379105471,-959.6326544894999
0.017569403791054712,-964.1378160224635
0.018569403791054713,-968.509670947288
0.019569403791054714,-972.7573737961687
0.0201,-974.9636155192763
0.020569403791054715,-976.8891163558752
0.021569403791054716,-980.9122686438915
0.022569403791054717,-984.8334936840832
0.023569403791054717,-988.658841899332
0.02456940379105472,-992.3938294540463
0.02556940379105472,-996.0435038190101
0.02656940379105472,-999.6124990614624
0.02756940379105472,-1003.1050827971641
0.028569403791054722,-1006.5251963188465
0.029569403791054723,-1009.8764890969156
0.030100000000000002,-1011.62789677171
0.030569403791054724,-1013.1623486053652
0.031569403791054725,-1016.3859262383307
0.032569403791054725,-1019.5501599373249
0.033569403791054726,-1022.6577940345354
0.03456940379105473,-1025.7113967274422
0.03556940379105473,-1028.7133755275563
0.03656940379105473,-1031.6659909684267
0.03756940379105473,-1034.571368811169
0.03856940379105473,-1037.431510947541
0.03956940379105473,-1040.2483051697022
0.040100000000000004,-1041.7258980165152
0.04056940379105473,-1043.023533949934
0.04156940379105473,-1045.7588823524607
0.042569403791054734,-1048.4559451817909
0.043569403791054735,-1051.1162334574924
0.044569403791054736,-1053.7411802925558
0.04556940379105474,-1056.3321462425547
0.04656940379105474,-1058.8904241834807
0.04756940379105474,-1061.4172437691238
0.04856940379105474,-1063.9137755120573
0.04956940379105474,-1066.381134527161
0.050100000000000006,-1067.6788260223732
0.05056940379105474,-1068.8203839716616
0.05156940379105474,-1071.2325382117265
0.05256940379105474,-1073.6185657422568
0.053569403791054744,-1075.9793918832634
0.054569403791054745,-1078.3159012737585
0.055569403791054746,-1080.6289401817576
0.05656940379105475,-1082.9193186468867
0.05756940379105475,-1085.1878124705274
0.05856940379105475,-1087.4351650666558
0.05956940379105475,-1089.6620891853
0.06010000000000001,-1090.8356267142542
0.06056940379105475,-1091.8692685194244
0.06156940379105475,-1094.0573592047444
0.06256940379105475,-1096.2269912212773
0.06356940379105475,-1098.3787697044618
0.06456940379105475,-1100.5132761729528
0.06556940379105475,-1102.631069679625
0.06656940379105475,-1104.7326878915865
0.06756940379105475,-1106.8186481045675
0.06856940379105475,-1108.889448196585
0.06956940379105475,-1110.945567525243
0.07010000000000001,-1112.030734139448
0.07056940379105475,-1112.9874677728571
0.07156940379105475,-1115.015593742971
0.07256940379105475,-1117.0303741117648
0.07356940379105475,-1119.0322221374568
0.07456940379105476,-1121.0215363305272
0.07556940379105476,-1122.9987010874593
0.07656940379105476,-1124.964087290317
0.07756940379105476,-1126.918052874566
0.07856940379105476,-1128.8609433670265
0.07956940379105476,-1130.7930923959434
0.0801,-1131.8140324340957
0.08056940379105476,-1132.7148221749455
0.08156940379105476,-1134.6264439625058
0.08256940379105476,-1136.5282584983947
0.08356940379105476,-1138.4205564185097
0.08456940379105476,-1140.303618649505
0.08556940379105477,-1142.1777167842258
0.08656940379105477,-1144.0431134392438
0.08756940379105477,-1145.9000625954484
0.08856940379105477,-1147.7488099226964
0.08956940379105477,-1149.5895930894042
0.0901,-1150.5631507683654
0.09056940379105477,-1151.4226420579744
0.09156940379105477,-1153.2481793667696
0.09256940379105477,-1155.0664203994388
0.09356940379105477,-1156.8775736422942
0.09456940379105477,-1158.6818409302696
0.09556940379105477,-1160.479417682241
0.09656940379105478,-1162.2704931261198
0.09756940379105478,-1164.0552505143478
0.09856940379105478,-1165.8338673302146
0.09956940379105478,-1167.6065154855514
0.1001,-1168.5447094690599
0.10056940379105478,-1169.3733615101744
0.10156940379105478,-1171.134566733519
0.10256940379105478,-1172.8902874588503
0.10356940379105478,-1174.640675130374
0.10456940379105478,-1176.3858764937318
0.10556940379105478,-1178.1260337499762
0.10656940379105478,-1179.8612847035552
0.10756940379105479,-1181.5917629044823
0.10856940379105479,-1183.3175977849414
0.10956940379105479,-1185.0389147907033
0.11009999999999999,-1185.950446319055
0.12009999999999998,-1202.9198085518785
0.1301,-1219.554734283974
0.1401,-1235.9296770775156
0.1501,-1252.0986050552826
0.16010000000000002,-1268.1000060256877
0.17010000000000003,-1283.9605387794772
0.18010000000000004,-1299.6977418027254
0.19010000000000005,-1315.3220714726626
0.20010000000000006,-1330.838454344242
0.21010000000000006,-1346.2474815806672
0.22010000000000007,-1361.546336082487
0.23010000000000008,-1376.729517452101
0.2401000000000001,-1391.7894123599117
0.2501000000000001,-1406.7167455181966
0.2601000000000001,-1421.500937636336
0.2701000000000001,-1436.1303903293979
0.2801000000000001,-1450.5927132519291
0.29010000000000014,-1464.8749052381565
0.30010000000000014,-1478.9634986089425
0.31010000000000015,-1492.8446738186265
0.32010000000000016,-1506.5043500953889
0.33010000000000017,-1519.928256555862
0.3401000000000002,-1533.1019873633782
0.3501000000000002,-1546.0110437854973
0.3601000000000002,-1558.6408654434836
0.3701000000000002,-1570.9768525997356
0.3801000000000002,-1583.00438097264
0.3901000000000002,-1594.7088102810465
0.40010000000000023,-1606.0754874890852
0.41010000000000024,-1617.0897455329741
0.42010000000000025,-1627.7368981565955
0.43010000000000026,-1638.0022313548952
0.44010000000000027,-1647.8709918174102
0.4501000000000003,-1657.3283726746843
0.4601000000000003,-1666.3594967738327
0.4701000000000003,-1674.9493976436813
0.4801000000000003,-1683.0829982519317
0.4901000000000003,-1690.7450876051757
0.5001000000000003,-1697.920295195
0.5101000000000003,-1704.5930632491295
0.5201000000000003,-1710.7476167040695
0.5301000000000003,-1716.3679307728175
0.5401000000000004,-1721.437695939016
0.5501000000000004,-1725.94028016363
0.5601000000000004,-1729.8586880425057
0.5701000000000004,-1733.1755166014775
0.5801000000000004,-1735.872907357461
0.5901000000000004,-1737.9324942094217
0.6001000000000004,-1739.335346648451
0.6101000000000004,-1740.0619076915234
0.6201000000000004,-1740.0919258429817
0.6301000000000004,-1739.4043802722551
0.6401000000000004,-1737.977398257642
0.6501000000000005,-1735.7881637827659
0.6601000000000005,-1732.8128159756534
0.6701000000000005,-1729.0263358447428
0.6801000000000005,-1724.4024194800463
0.6901000000000005,-1718.9133355392519
0.7001000000000005,-1712.5297644117577
0.7101000000000005,-1705.2206159262873
0.7201000000000005,-1696.9528218139885
0.7301000000000005,-1687.6910983194903
0.7401000000000005,-1677.3976733215163
0.7501000000000005,-1666.0319710135489
0.7601000000000006,-1653.5502455167561
0.7701000000000006,-1639.9051526263615
0.7801000000000006,-1625.0452460591996
0.7901000000000006,-1608.9143808308904
0.8001000000000006,-1591.4510014002744
0.8101000000000006,-1572.5872854734953
0.8201000000000006,-1552.2481051193245
0.8301000000000006,-1530.3497539944478
0.8401000000000006,-1506.7983713079773
0.8501000000000006,-1481.4879669901275
0.8601000000000006,-1454.297914086494
0.8701000000000007,-1425.0897166050001
0.8801000000000007,-1393.7027719026137
0.8901000000000007,-1359.948705121848
0.9001000000000007,-1323.6036206453516
0.9101000000000007,-1284.3972183612589
0.9201000000000007,-1241.9970122333725
0.9301000000000007,-1195.9845464881341
0.9401000000000007,-1145.8177921897666
0.9457186915271087,-1115.545186077464
0.9467186915271087,-1109.984214164687
0.9477186915271087,-1104.3683739747037
0.9487186915271087,-1098.6965774518399
0.9497186915271087,-1092.9676936080548
0.9501000000000007,-1090.7679431765757
0.9507186915271088,-1087.1805459557231
0.9517186915271088,-1081.3339097321066
0.9527186915271088,-1075.426508893413
0.9537186915271088,-1069.4570128547678
0.9547186915271088,-1063.4240329480936
0.9557186915271088,-1057.3261185668823
0.9567186915271088,-1051.161752962663
0.9577186915271088,-1044.9293486526622
0.9587186915271088,-1038.6272423927853
0.9597186915271088,-1032.2536896632525
0.9601000000000007,-1029.8042044446656
0.9607186915271088,-1025.8068586062552
0.9617186915271088,-1019.2848233459453
0.9627186915271088,-1012.685556610013
0.9637186915271088,-1006.0069215590584
0.9647186915271088,-999.246662714537
0.9657186915271088,-992.4023958574919
0.9667186915271088,-985.4715967477679
0.9677186915271088,-978.4515884863348
0.9687186915271088,-971.3395273104283
0.9697186915271088,-964.132386570805
0.9701000000000007,-961.3585355361739
0.9707186915271088,-956.8269385904695
0.9717186915271088,-949.4197340429273
0.9727186915271088,-941.9070784107977
0.9737186915271088,-934.2850049890848
0.9747186915271088,-926.549243774797
0.9757186915271088,-918.695185428234
0.9767186915271088,-910.7178392894743
0.9777186915271088,-902.6117841713124
0.9787186915271088,-894.3711103044274
0.9797186915271088,-885.9893503522399
0.9801000000000007,-882.754695918632
0.9807186915271088,-877.459396794598
0.9817186915271088,-868.7734021371213
0.9827186915271088,-859.922657236488
0.9837186915271088,-850.8974413911408
0.9847186915271088,-841.6868354978538
0.9857186915271088,-832.278486144437
0.9867186915271088,-822.658303388008
0.9877186915271088,-812.8100671321743
0.9887186915271088,-802.7149046827656
0.9897186915271088,-792.3505820107353
0.9901000000000008,-788.3223055326971
0.9907186915271088,-781.6905174157184
0.9917186915271088,-770.7023666294501
0.9927186915271088,-759.3459175913861
0.9937186915271088,-747.5698138633779
0.9947186915271088,-735.3061562667564
0.9957186915271088,-722.4609208870147
0.9999,-655.7044882469977
