mole fraction,chemical potential
0.01,-14373.341172028879
0.02,-12288.350848539223
0.03,-11068.709694931305
0.04,-10203.360525049571
0.05,-9532.14356234996
0.060000000000000005,-8983.71937144165
0.07,-8520.033324937722
0.08,-8118.3702015599165
0.09,-7764.07821783373
0.09999999999999999,-7447.153238860307
0.10999999999999999,-7160.459722395963
0.11999999999999998,-6898.729047951995
0.12999999999999998,-6657.960167047918
0.13999999999999999,-6435.043001448068
0.15,-6227.512085252386
0.16,-6033.379878070262
0.17,-5851.020700398392
0.18000000000000002,-5679.087894344075
0.19000000000000003,-5516.453411613534
0.20000000000000004,-5362.162915370652
0.21000000000000005,-5215.401847840146
0.22000000000000006,-5075.469398906307
0.23000000000000007,-4941.758265944073
0.24000000000000007,-4813.73872446234
0.25000000000000006,-4690.945952671042
0.26000000000000006,-4572.969843558263
0.2700000000000001,-4459.4467407361535
0.2800000000000001,-4350.0526779584125
0.2900000000000001,-4244.497805491248
0.3000000000000001,-4142.52176176273
0.3100000000000001,-4043.889804204095
0.3200000000000001,-3948.389554580606
0.3300000000000001,-3855.828245298386
0.34000000000000014,-3766.0303769087363
0.35000000000000014,-3678.8357152588014
0.36000000000000015,-3594.0975708544192
0.37000000000000016,-3511.681314021905
0.37100000000000016,-3503.5625366235604
0.37200000000000016,-3495.465613295784
0.37300000000000016,-3487.3904267010716
0.37400000000000017,-3479.336860444392
0.37500000000000017,-3471.30479906312
0.37600000000000017,-3463.2941280171026
0.37700000000000017,-3455.3047336788595
0.37800000000000017,-3447.336503323914
0.37900000000000017,-3439.389325121246
0.38000000000000017,-3431.463088123879
0.38100000000000017,-3423.5576822595835
0.3820000000000002,-3415.672998321708
0.3830000000000002,-3407.808927960124
0.3840000000000002,-3399.9653636722946
0.3850000000000002,-3392.1421987944577
0.3860000000000002,-3384.339327492918
0.3870000000000002,-3376.5566447554634
0.3880000000000002,-3368.7940463828786
0.3890000000000002,-3361.0514289805774
0.3900000000000002,-3353.3286899503414
0.3910000000000002,-3345.6257274821587
0.3920000000000002,-3337.9424405461727
0.3930000000000002,-3330.278728884731
0.3940000000000002,-3322.6344930045375
0.3950000000000002,-3315.0096341688986
0.3960000000000002,-3307.4040543900746
0.3970000000000002,-3299.8176564217224
0.3980000000000002,-3292.2503437514347
0.3990000000000002,-3284.7020205933736
0.4000000000000002,-3277.1725918809957
0.4010000000000002,-3269.6619632598686
0.4020000000000002,-3262.1700410805743
0.4030000000000002,-3254.696732391706
0.4040000000000002,-3247.241944932946
0.4050000000000002,-3239.805587128232
0.4060000000000002,-3232.3875680790093
0.4070000000000002,-3224.9877975575605
0.4080000000000002,-3217.6061860004256
0.4090000000000002,-3210.242644501892
0.4100000000000002,-3202.897084807573
0.4110000000000002,-3195.5694193080617
0.4120000000000002,-3188.259561032659
0.4130000000000002,-3180.9674236431806
0.4140000000000002,-3173.692921427841
0.4150000000000002,-3166.4359692952053
0.4160000000000002,-3159.1964827682177
0.4170000000000002,-3151.9743779783025
0.4180000000000002,-3144.7695716595344
0.4190000000000002,-3137.581981142877
0.4200000000000002,-3130.4115243504907
0.4210000000000002,-3123.2581197901122
0.4220000000000002,-3116.1216865494944
0.4230000000000002,-3109.0021442909156
0.4240000000000002,-3101.8994132457547
0.4250000000000002,-3094.8134142091267
0.4260000000000002,-3087.744068534584
0.4270000000000002,-3080.691298128879
0.4280000000000002,-3073.655025446789
0.4290000000000002,-3066.6351734859973
0.4300000000000002,-3059.6316657820403
0.4310000000000002,-3052.644426403309
0.4320000000000002,-3045.673379946108
0.4330000000000002,-3038.7184515297754
0.4340000000000002,-3031.7795667918554
0.4350000000000002,-3024.8566518833272
0.4360000000000002,-3017.94963346389
0.4370000000000002,-3011.058438697301
0.4380000000000002,-3004.182995246767
0.4390000000000002,-2997.323231270387
0.4400000000000002,-2990.4790754166515
0.4410000000000002,-2983.6504568199857
0.4420000000000002,-2976.837305096348
0.4430000000000002,-2970.0395503388786
0.44400000000000023,-2963.257123113594
0.44500000000000023,-2956.4899544551326
0.44600000000000023,-2949.7379758625475
0.44700000000000023,-2943.001119295144
0.44800000000000023,-2936.279317168367
0.44900000000000023,-2929.5725023497334
0.45000000000000023,-2922.880608154809
0.45100000000000023,-2916.2035683432287
0.45200000000000023,-2909.541317114764
0.45300000000000024,-2902.893789105432
0.45400000000000024,-2896.260919383646
0.45500000000000024,-2889.6426434464133
0.45600000000000024,-2883.038897215568
0.45700000000000024,-2876.4496170340503
0.45800000000000024,-2869.874739662225
0.45900000000000024,-2863.3142022742386
0.46000000000000024,-2856.767942454418
0.46100000000000024,-2850.235898193708
0.46200000000000024,-2843.7180078861466
0.46300000000000024,-2837.2142103253773
0.46400000000000025,-2830.7244447012035
0.46500000000000025,-2824.248650596174
0.46600000000000025,-2817.78676798221
0.46700000000000025,-2811.338737217268
0.46800000000000025,-2804.9044990420307
0.46900000000000025,-2798.4839945766466
0.47000000000000025,-2792.0771653174925
0.47100000000000025,-2785.683953133977
0.47200000000000025,-2779.304300265375
0.47300000000000025,-2772.938149317696
0.47400000000000025,-2766.585443260588
0.47500000000000026,-2760.246125424269
0.47600000000000026,-2753.920139496497
0.47700000000000026,-2747.6074295195676
0.47800000000000026,-2741.307939887342
0.47900000000000026,-2735.0216153423107
0.48000000000000026,-2728.748400972685
0.48100000000000026,-2722.488242209516
0.48200000000000026,-2716.241084823852
0.48300000000000026,-2710.0068749239126
0.48400000000000026,-2703.7855589523074
0.48500000000000026,-2697.577083683268
0.48600000000000027,-2691.381396219921
0.48700000000000027,-2685.1984439915805
0.48800000000000027,-2679.0281747510735
0.48900000000000027,-2672.8705365720903
0.49000000000000027,-2666.7254778465626
0.49100000000000027,-2660.592947282068
0.49200000000000027,-2654.472893899262
0.49300000000000027,-2648.3652670293336
0.49400000000000027,-2642.27001631149
0.4950000000000003,-2636.1870916904645
0.4960000000000003,-2630.1164434140496
0.4970000000000003,-2624.0580220306556
0.4980000000000003,-2618.011778386894
0.4990000000000003,-2611.9776636251845
0.5000000000000002,-2605.955629181386
0.5010000000000002,-2599.945626782452
0.5020000000000002,-2593.947608444107
0.5030000000000002,-2587.961526468551
0.5040000000000002,-2581.98733344218
0.5050000000000002,-2576.0249822333362
0.5060000000000002,-2570.0744259900744
0.5070000000000002,-2564.1356181379533
0.5080000000000002,-2558.2085123778497
0.5090000000000002,-2552.2930626837924
0.5100000000000002,-2546.389223300816
0.5110000000000002,-2540.496948742839
0.5120000000000002,-2534.616193790561
0.5130000000000002,-2528.7469134893813
0.5140000000000002,-2522.8890631473337
0.5150000000000002,-2517.0425983330488
0.5160000000000002,-2511.2074748737296
0.5170000000000002,-2505.3836488531488
0.5180000000000002,-2499.571076609666
0.5190000000000002,-2493.769714734265
0.5200000000000002,-2487.9795200686076
0.5210000000000002,-2482.2004497031057
0.5220000000000002,-2476.4324609750165
0.5230000000000002,-2470.6755114665493
0.5240000000000002,-2464.9295590029974
0.5250000000000002,-2459.194561650881
0.5260000000000002,-2453.4704777161132
0.5270000000000002,-2447.7572657421806
0.5280000000000002,-2442.0548845083413
0.5290000000000002,-2436.363293027841
0.5300000000000002,-2430.6824505461445
0.5310000000000002,-2425.0123165391883
0.5320000000000003,-2419.35285071164
0.5330000000000003,-2413.7040129951847
0.5340000000000003,-2408.0657635468224
0.5350000000000003,-2402.438062747179
0.5360000000000003,-2396.820871198841
0.5370000000000003,-2391.2141497246944
0.5380000000000003,-2385.6178593662903
0.5390000000000003,-2380.0319613822185
0.5400000000000003,-2374.456417246498
0.5410000000000003,-2368.891188646984
0.5420000000000003,-2363.3362374837875
0.5430000000000003,-2357.7915258677094
0.5440000000000003,-2352.257016118692
0.5450000000000003,-2346.7326707642806
0.5460000000000003,-2341.2184525381026
0.5470000000000003,-2335.7143243783585
0.5480000000000003,-2330.220249426328
0.5490000000000003,-2324.7361910248865
0.5500000000000003,-2319.2621127170423
0.5510000000000003,-2313.7979782444763
0.5520000000000003,-2308.3437515461073
0.5530000000000003,-2302.8993967566594
0.5540000000000003,-2297.46487820525
0.5550000000000003,-2292.0401604139843
0.5560000000000003,-2286.6252080965687
0.5570000000000003,-2281.219986156933
0.5580000000000003,-2275.824459687863
0.5590000000000003,-2270.438593969652
0.5600000000000003,-2265.062354468757
0.5610000000000003,-2259.6957068364713
0.5620000000000003,-2254.3386169076084
0.5630000000000003,-2248.991050699196
0.5640000000000003,-2243.6529744091818
0.5650000000000003,-2238.3243544151546
0.5660000000000003,-2233.00515727307
0.5670000000000003,-2227.695349715993
0.5680000000000003,-2222.39489865285
0.5690000000000003,-2217.1037711671897
0.5700000000000003,-2211.821934515958
0.5710000000000003,-2206.549356128282
0.5720000000000003,-2201.286003604263
0.5730000000000003,-2196.031844713787
0.5740000000000003,-2190.786847395334
0.5750000000000003,-2185.5509797548084
0.5760000000000003,-2180.3242100643743
0.5770000000000003,-2175.1065067613017
0.5780000000000003,-2169.897838446822
0.5790000000000003,-2164.6981738849977
0.5800000000000003,-2159.5074820015934
0.5900000000000003,-2108.087337565765
0.6000000000000003,-2057.5314382730753
0.6100000000000003,-2007.8112120514638
0.6200000000000003,-1958.89948071444
0.6300000000000003,-1910.7703707425699
0.6400000000000003,-1863.3992310909512
0.6500000000000004,-1816.7625573689977
0.6600000000000004,-1770.837921808731
0.6700000000000004,-1725.6039084992308
0.6800000000000004,-1681.0400534190817
0.6900000000000004,-1637.1267888464972
0.7000000000000004,-1593.845391769147
0.7100000000000004,-1551.17793595324
0.7200000000000004,-1509.1072473647641
0.7210000000000004,-1504.9323609208097
0.7220000000000004,-1500.7632608771069
0.7230000000000004,-1496.599931215931
0.7240000000000004,-1492.4423559859752
0.7250000000000004,-1488.2905193019835
0.7260000000000004,-1484.1444053443868
0.7270000000000004,-1480.0039983589409
0.7280000000000004,-1475.8692826563683
0.7290000000000004,-1471.7402426120002
0.7300000000000004,-1467.616862665423
0.7310000000000004,-1463.499127320126
0.7320000000000004,-1459.3870211431527
0.7330000000000004,-1455.280528764753
0.7340000000000004,-1451.1796348780388
0.7350000000000004,-1447.0843242386418
0.7360000000000004,-1442.994581664373
0.7370000000000004,-1438.9103920348866
0.7380000000000004,-1434.8317402913412
0.7390000000000004,-1430.7586114360706
0.7400000000000004,-1426.69099053225
0.7410000000000004,-1422.6288627035697
0.7420000000000004,-1418.5722131339055
0.7430000000000004,-1414.5210270669982
0.7440000000000004,-1410.4752898061288
0.7450000000000004,-1406.4349867137998
0.7460000000000004,-1402.4001032114165
0.7470000000000004,-1398.3706247789733
0.7480000000000004,-1394.3465369547375
0.7490000000000004,-1390.32782533494
0.7500000000000004,-1386.3144755734652
0.7510000000000004,-1382.306473381544
0.7520000000000004,-1378.3038045274475
0.7530000000000004,-1374.3064548361858
0.7540000000000004,-1370.3144101892049
0.7550000000000004,-1366.327656524088
0.7560000000000004,-1362.346179834259
0.7570000000000005,-1358.3699661686865
0.7580000000000005,-1354.399001631591
0.7590000000000005,-1350.433272382153
0.7600000000000005,-1346.472764634224
0.7700000000000005,-1307.1518753048026
0.7800000000000005,-1268.3383664606868
0.7900000000000005,-1230.019310679244
0.8000000000000005,-1192.182268391341
0.8100000000000005,-1154.815263638577
0.8200000000000005,-1117.9067613179182
0.8300000000000005,-1081.4456458055502
0.8400000000000005,-1045.421200860836
0.8500000000000005,-1009.8230907194716
0.8600000000000005,-974.6413422923854
0.8700000000000006,-939.8663283936725
0.8800000000000006,-905.4887519269969
0.8900000000000006,-871.499630965478
0.9000000000000006,-837.8902846651542
0.9100000000000006,-804.6523199567584
0.9200000000000006,-771.7776189647633
0.9300000000000006,-739.2583271065189
0.9400000000000006,-707.0868418278377
0.9500000000000006,-675.255801934614
0.9600000000000006,-643.7580774830301
0.9700000000000006,-612.5867601936135
0.9800000000000006,-581.7351543569077
0.9900000000000007,-551.19676820081
